746.42577	0.18455
744.49702	0.18569
742.56827	0.18679
740.63952	0.18810
738.71077	0.18970
736.78202	0.19122
734.85327	0.19234
732.92452	0.19326
730.99578	0.19425
729.06703	0.19544
727.13828	0.19677
725.20953	0.19807
723.28078	0.19925
721.35203	0.20034
719.42328	0.20141
717.49453	0.20253
715.56579	0.20367
713.63704	0.20470
711.70829	0.20563
709.77954	0.20656
707.85079	0.20752
705.92204	0.20850
703.99329	0.20952
702.06454	0.21055
700.13580	0.21155
698.20705	0.21251
696.27830	0.21345
694.34955	0.21444
692.42080	0.21544
690.49205	0.21641
688.56330	0.21734
686.63455	0.21828
684.70581	0.21921
682.77706	0.22012
680.84831	0.22103
678.91956	0.22192
676.99081	0.22275
675.06206	0.22353
673.13331	0.22432
671.20456	0.22508
669.27582	0.22579
667.34707	0.22655
665.41832	0.22740
663.48957	0.22823
661.56082	0.22901
659.63207	0.22980
657.70332	0.23055
655.77457	0.23116
653.84583	0.23176
651.91708	0.23243
649.98833	0.23312
648.05958	0.23381
646.13083	0.23441
644.20208	0.23490
642.27333	0.23547
640.34458	0.23614
638.41584	0.23679
636.48709	0.23736
634.55834	0.23775
632.62959	0.23797
630.70084	0.23811
628.77209	0.23831
626.84334	0.23871
624.91459	0.23921
622.98585	0.23909
621.05710	0.23812
619.12835	0.23828
617.19960	0.23980
615.27085	0.24102
613.34210	0.24154
611.41335	0.24184
609.48460	0.24227
607.55586	0.24296
605.62711	0.24424
603.69836	0.24602
601.76961	0.24684
599.84086	0.24668
597.91211	0.24672
595.98336	0.24696
594.05461	0.24700
592.12587	0.24687
590.19712	0.24667
588.26837	0.24649
586.33962	0.24647
584.41087	0.24664
582.48212	0.24680
580.55337	0.24668
578.62462	0.24632
576.69588	0.24601
574.76713	0.24593
572.83838	0.24588
570.90963	0.24571
568.98088	0.24556
567.05213	0.24557
565.12338	0.24564
563.19463	0.24571
561.26589	0.24585
559.33714	0.24588
557.40839	0.24560
555.47964	0.24525
553.55089	0.24508
551.62214	0.24494
549.69339	0.24459
547.76464	0.24403
545.83590	0.24351
543.90715	0.24332
541.97840	0.24337
540.04965	0.24327
538.12090	0.24288
536.19215	0.24251
534.26340	0.24237
532.33465	0.24225
530.40591	0.24197
528.47716	0.24169
526.54841	0.24161
524.61966	0.24151
522.69091	0.24112
520.76216	0.24051
518.83341	0.24002
516.90466	0.23988
514.97592	0.23994
513.04717	0.23983
511.11842	0.23937
509.18967	0.23879
507.26092	0.23837
505.33217	0.23804
503.40342	0.23760
501.47467	0.23709
499.54593	0.23657
497.61718	0.23609
495.68843	0.23568
493.75968	0.23520
491.83093	0.23467
489.90218	0.23425
487.97343	0.23390
486.04468	0.23345
484.11594	0.23286
482.18719	0.23225
480.25844	0.23169
478.32969	0.23108
476.40094	0.23038
474.47219	0.22963
472.54344	0.22886
470.61469	0.22808
468.68595	0.22741
466.75720	0.22676
464.82845	0.22594
462.89970	0.22504
460.97095	0.22421
459.04220	0.22345
457.11345	0.22279
455.18470	0.22216
453.25596	0.22154
451.32721	0.22105
449.39846	0.22046
447.46971	0.21972
445.54096	0.21909
443.61221	0.21855
441.68346	0.21791
439.75471	0.21715
437.82597	0.21635
435.89722	0.21557
433.96847	0.21487
432.03972	0.21415
430.11097	0.21328
428.18222	0.21242
426.25347	0.21170
424.32472	0.21101
422.39598	0.21009
420.46723	0.20899
418.53848	0.20794
416.60973	0.20704
414.68098	0.20616
412.75223	0.20528
410.82348	0.20440
408.89473	0.20349
406.96599	0.20250
405.03724	0.20145
403.10849	0.20038
401.17974	0.19930
399.25099	0.19818
397.32224	0.19711
395.39349	0.19619
393.46474	0.19540
391.53600	0.19454
389.60725	0.19357
387.67850	0.19258
385.74975	0.19168
383.82100	0.19086
381.89225	0.18991
379.96350	0.18876
378.03475	0.18759
376.10601	0.18648
374.17726	0.18544
372.24851	0.18439
370.31976	0.18321
368.39101	0.18202
366.46226	0.18097
364.53351	0.17995
362.60476	0.17889
360.67602	0.17774
358.74727	0.17647
356.81852	0.17520
354.88977	0.17400
352.96102	0.17283
351.03227	0.17163
349.10352	0.17038
347.17477	0.16914
345.24603	0.16796
343.31728	0.16674
341.38853	0.16536
339.45978	0.16386
337.53103	0.16240
335.60228	0.16112
333.67353	0.15998
331.74478	0.15873
329.81604	0.15730
327.88729	0.15583
325.95854	0.15446
324.02979	0.15326
322.10104	0.15218
320.17229	0.15110
318.24354	0.14999
316.31479	0.14880
314.38605	0.14751
312.45730	0.14620
310.52855	0.14490
308.59980	0.14360
306.67105	0.14227
304.74230	0.14085
302.81355	0.13953
300.88480	0.13845
298.95606	0.13736
297.02731	0.13618
295.09856	0.13513
293.16981	0.13418
291.24106	0.13313
289.31231	0.13201
287.38356	0.13104
285.45481	0.13016
283.52607	0.12908
281.59732	0.12790
279.66857	0.12695
277.73982	0.12634
275.81107	0.12587
273.88232	0.12535
271.95357	0.12472
270.02482	0.12396
268.09608	0.12314
266.16733	0.12245
264.23858	0.12191
262.30983	0.12147
260.38108	0.12107
258.45233	0.12058
256.52358	0.11988
254.59483	0.11918
252.66609	0.11880
250.73734	0.11850
248.80859	0.11797
246.87984	0.11741
244.95109	0.11709
243.02234	0.11700
241.09359	0.11686
239.16484	0.11658
237.23610	0.11631
235.30735	0.11607
233.37860	0.11582
231.44985	0.11553
229.52110	0.11524
227.59235	0.11502
225.66360	0.11492
223.73485	0.11481
221.80611	0.11480
219.87736	0.11512
217.94861	0.11536
216.01986	0.11513
214.09111	0.11477
212.16236	0.11482
210.23361	0.11508
208.30486	0.11527
206.37612	0.11531
204.44737	0.11517
202.51862	0.11536
200.58987	0.11594
198.66112	0.11626
196.73237	0.11623
194.80362	0.11652
192.87487	0.11725
190.94613	0.11783
189.01738	0.11804
187.08863	0.11799
185.15988	0.11778
183.23113	0.11755
181.30238	0.11773
179.37363	0.11819
177.44488	0.11832
175.51614	0.11821
173.58739	0.11790
171.65864	0.11748
169.72989	0.11732
167.80114	0.11763
165.87239	0.11798
163.94364	0.11815
162.01489	0.11835
160.08615	0.11840
158.15740	0.11842
156.22865	0.11830
154.29990	0.11801
152.37115	0.11738
150.44240	0.11653
148.51365	0.11604
146.58490	0.11562
144.65616	0.11517
142.72741	0.11454
140.79866	0.11405
138.86991	0.11373
136.94116	0.11349
135.01241	0.11321
133.08366	0.11255
131.15491	0.11197
129.22617	0.11112
127.29742	0.11044
125.36867	0.10952
123.43992	0.10805
121.51117	0.10699
119.58242	0.10657
117.65367	0.10656
115.72492	0.10547
113.79618	0.10401
111.86743	0.10296
109.93868	0.10258
108.00993	0.10177
106.08118	0.09958
104.15243	0.09786
102.22368	0.09634
100.29493	0.09508
98.36619	0.09361
96.43744	0.09276
94.50869	0.09207
92.57994	0.08981
90.65119	0.08790
88.72244	0.08703
86.79369	0.08771
84.86494	0.08684
82.93620	0.08474
81.00745	0.08235
79.07870	0.07966
77.14995	0.07858
75.22120	0.07711
73.29245	0.07659
71.36370	0.07450
69.43495	0.07159
67.50621	0.06849
65.57746	0.06604
63.64871	0.06802
61.71996	0.06843
59.79121	0.06708
57.86246	0.06304
55.93371	0.06083
54.00496	0.05853
52.07622	0.05527
50.14747	0.05499
48.21872	0.05053
